finestep,time,c_0,c_1,c_2,c_3,c_4,temp,c_mean
10305,0.03177690505981445,-20,-22,-19,-20,-21,21.3,-20.4
10366,0.25513601303100586,-22,-23,-23,-21,-22,21.3,-22.2
10426,0.3669557571411133,-24,-21,-23,-23,-23,21.3,-22.8
10486,0.4786996841430664,-22,-24,-24,-25,-23,21.3,-23.6
10546,0.5903286933898926,-23,-23,-23,-23,-24,21.3,-23.2
10605,0.7015037536621094,-25,-25,-23,-24,-24,21.3,-24.2
10671,0.7980411052703857,-24,-23,-25,-26,-24,21.3,-24.4
10741,0.8941919803619385,-26,-24,-25,-25,-26,21.3,-25.2
10812,1.0058257579803467,-24,-23,-22,-25,-24,21.3,-23.6
10876,1.1010947227478027,-25,-25,-26,-26,-26,21.3,-25.6
10939,1.1976230144500732,-25,-24,-23,-27,-28,21.3,-25.4
10996,1.292304515838623,-24,-26,-26,-25,-25,21.3,-25.2
11051,1.388331651687622,-25,-25,-27,-26,-26,21.3,-25.8
11099,1.4840443134307861,-27,-25,-26,-26,-27,21.3,-26.2
11143,1.5806057453155518,-26,-25,-25,-26,-25,21.3,-25.4
11187,1.676633596420288,-24,-26,-25,-27,-26,21.3,-25.6
11226,1.771806240081787,-26,-26,-25,-27,-28,21.3,-26.4
11263,1.8677775859832764,-26,-25,-27,-26,-26,21.3,-26.0
11299,1.9635498523712158,-26,-26,-27,-27,-25,21.3,-26.2
11332,2.0600945949554443,-28,-26,-26,-26,-25,21.3,-26.2
11364,2.1557538509368896,-25,-25,-28,-25,-25,21.3,-25.6
11396,2.2516627311706543,-26,-29,-28,-27,-27,21.3,-27.4
11429,2.347503185272217,-24,-25,-25,-28,-25,21.3,-25.4
11468,2.443131685256958,-28,-27,-26,-26,-27,21.3,-26.8
11509,2.539194107055664,-26,-27,-25,-27,-25,21.3,-26.0
11552,2.634068012237549,-27,-28,-27,-29,-26,21.3,-27.4
11597,2.745734930038452,-28,-28,-28,-26,-27,21.3,-27.4
11645,2.8416502475738525,-28,-26,-27,-27,-29,21.3,-27.4
11691,2.93837571144104,-27,-28,-27,-26,-26,21.3,-26.8
11737,3.0342636108398438,-28,-27,-26,-28,-27,21.3,-27.2
11780,3.1292946338653564,-30,-29,-28,-29,-27,21.3,-28.6
11819,3.225332260131836,-27,-29,-30,-27,-28,21.3,-28.2
11853,3.3366801738739014,-30,-25,-29,-27,-29,21.3,-28.0
11881,3.433504581451416,-28,-30,-28,-29,-27,21.3,-28.4
11908,3.529289484024048,-27,-28,-28,-29,-28,21.3,-28.0
11932,3.624911069869995,-29,-29,-29,-29,-27,21.3,-28.6
11954,3.721102476119995,-27,-28,-28,-29,-28,21.3,-28.0
11975,3.8167026042938232,-31,-30,-30,-27,-27,21.3,-29.0
11992,3.912743091583252,-31,-26,-28,-30,-28,21.3,-28.6
12009,4.0079615116119385,-29,-28,-29,-30,-27,21.3,-28.6
12024,4.119508504867554,-29,-29,-28,-27,-28,21.3,-28.2
12038,4.2162299156188965,-29,-30,-31,-29,-28,21.3,-29.4
12050,4.311583042144775,-30,-28,-29,-29,-30,21.3,-29.2
12067,4.407823801040649,-27,-29,-29,-30,-29,21.3,-28.8
12088,4.503549098968506,-28,-29,-28,-28,-29,21.3,-28.4
12112,4.598785638809204,-28,-29,-28,-29,-31,21.3,-29.0
12139,4.710939645767212,-32,-29,-29,-29,-28,21.3,-29.4
12174,4.80678391456604,-29,-30,-29,-30,-27,21.3,-29.0
12213,4.902752876281738,-29,-31,-30,-28,-32,21.3,-30.0
12254,4.998657941818237,-28,-31,-29,-29,-30,21.3,-29.4
12300,5.094426393508911,-29,-29,-30,-28,-28,21.3,-28.8
12348,5.19041633605957,-29,-31,-31,-29,-30,21.3,-30.0
12397,5.285936594009399,-30,-29,-30,-29,-31,21.3,-29.8
12448,5.381931781768799,-30,-30,-29,-29,-29,21.3,-29.4
12498,5.493770599365234,-30,-29,-30,-31,-32,21.3,-30.4
12550,5.588745594024658,-30,-31,-33,-29,-29,21.3,-30.4
12604,5.684696435928345,-30,-29,-30,-30,-29,21.3,-29.6
12657,5.781279563903809,-30,-30,-30,-30,-31,21.3,-30.2
12709,5.876962900161743,-30,-31,-30,-31,-31,21.3,-30.6
12760,5.972963333129883,-31,-31,-30,-32,-32,21.3,-31.2
12809,6.068804502487183,-32,-30,-29,-33,-31,21.3,-31.0
12855,6.164652585983276,-34,-32,-30,-31,-32,21.3,-31.8
12898,6.260353326797485,-29,-31,-30,-35,-32,21.3,-31.4
12938,6.356231212615967,-32,-32,-31,-33,-32,21.3,-32.0
12973,6.4682300090789795,-30,-31,-30,-32,-31,21.3,-30.8
13003,6.563089370727539,-31,-30,-31,-30,-30,21.3,-30.4
13028,6.675604343414307,-32,-31,-31,-33,-31,21.3,-31.6
13055,6.7714738845825195,-30,-32,-32,-33,-35,21.3,-32.4
13084,6.867415904998779,-33,-32,-31,-31,-31,21.3,-31.6
13114,6.962833404541016,-32,-31,-33,-31,-30,21.3,-31.4
13144,7.058408975601196,-32,-31,-31,-33,-33,21.3,-32.0
13170,7.1541221141815186,-32,-31,-30,-31,-31,21.3,-31.0
13196,7.249837398529053,-33,-32,-30,-32,-31,21.3,-31.6
13221,7.345878839492798,-31,-32,-32,-32,-31,21.3,-31.6
13248,7.44171142578125,-32,-31,-32,-31,-31,21.3,-31.4
13279,7.538119316101074,-34,-31,-31,-33,-33,21.3,-32.4
13311,7.633957862854004,-33,-34,-30,-34,-34,21.3,-33.0
13348,7.729758262634277,-33,-33,-33,-33,-34,21.3,-33.2
13388,7.825416564941406,-32,-32,-34,-33,-33,21.3,-32.8
13435,7.920896291732788,-33,-33,-33,-34,-33,21.3,-33.2
13481,8.016337871551514,-32,-34,-33,-33,-34,21.3,-33.2
13532,8.112974643707275,-34,-34,-31,-32,-30,21.3,-32.2
13588,8.208996057510376,-31,-34,-34,-33,-32,21.3,-32.8
13648,8.304769039154053,-35,-34,-35,-32,-34,21.3,-34.0
13706,8.400383472442627,-32,-33,-34,-33,-33,21.3,-33.0
13765,8.496318578720093,-35,-32,-35,-34,-34,21.3,-34.0
13823,8.591737270355225,-36,-33,-35,-33,-34,21.3,-34.2
13878,8.687379598617554,-33,-35,-33,-34,-35,21.3,-34.0
13931,8.783813714981079,-34,-36,-33,-35,-34,21.3,-34.4
13984,8.879708051681519,-34,-34,-35,-34,-32,21.3,-33.8
14037,8.975294589996338,-35,-34,-32,-34,-33,21.3,-33.6
14090,9.070958375930786,-34,-34,-35,-34,-37,21.3,-34.8
14138,9.166890382766724,-35,-34,-34,-36,-34,21.3,-34.6
14185,9.262868404388428,-35,-35,-35,-34,-33,21.3,-34.4
14235,9.374728202819824,-35,-36,-37,-35,-35,21.3,-35.6
14285,9.470608949661255,-33,-35,-34,-34,-34,21.3,-34.0
14338,9.566331148147583,-35,-36,-39,-36,-34,21.3,-36.0
14389,9.662160634994507,-37,-36,-37,-35,-36,21.3,-36.2
14441,9.773268461227417,-34,-36,-38,-35,-35,21.3,-35.6
14491,9.869943380355835,-33,-35,-38,-35,-36,21.3,-35.4
14539,9.965633630752563,-35,-36,-37,-36,-36,21.3,-36.0
14589,10.06154751777649,-35,-37,-36,-36,-36,21.3,-36.0
14641,10.157166719436646,-36,-36,-36,-38,-35,21.3,-36.2
14695,10.253125429153442,-36,-36,-35,-36,-36,21.3,-35.8
14750,10.365021705627441,-37,-37,-34,-36,-36,21.3,-36.0
14807,10.460851192474365,-37,-36,-36,-35,-38,21.3,-36.4
14861,10.57198715209961,-38,-37,-36,-36,-36,21.3,-36.6
14915,10.683786869049072,-38,-36,-38,-38,-37,21.3,-37.4
14970,10.796262741088867,-35,-37,-39,-36,-37,21.3,-36.8
15026,10.892067670822144,-36,-38,-36,-38,-36,21.3,-36.8
15080,10.98778247833252,-36,-37,-37,-37,-38,21.3,-37.0
15132,11.099050045013428,-36,-38,-37,-38,-38,21.3,-37.4
15180,11.210532188415527,-38,-40,-39,-38,-38,21.3,-38.6
15225,11.307264804840088,-38,-39,-38,-38,-39,21.3,-38.4
15265,11.402812004089355,-38,-38,-38,-38,-39,21.3,-38.2
15303,11.513977766036987,-40,-38,-38,-39,-41,21.3,-39.2
15336,11.610039472579956,-38,-39,-36,-38,-36,21.3,-37.4
15365,11.705788850784302,-38,-38,-36,-39,-40,21.3,-38.2
15395,11.81828260421753,-39,-40,-39,-40,-37,21.3,-39.0
15426,11.914012432098389,-40,-39,-38,-38,-37,21.3,-38.4
15456,12.009960651397705,-38,-39,-39,-39,-38,21.3,-38.6
15482,12.105721712112427,-39,-39,-38,-37,-39,21.3,-38.4
15502,12.201666355133057,-38,-40,-39,-40,-41,21.3,-39.6
15515,12.297239542007446,-39,-40,-39,-39,-39,21.3,-39.2
15523,12.393247365951538,-40,-41,-39,-40,-40,21.3,-40.0
15525,12.488111972808838,-39,-41,-39,-38,-40,21.3,-39.4
15523,12.584871768951416,-40,-40,-39,-38,-39,21.3,-39.2
15517,12.679975748062134,-40,-41,-40,-38,-38,21.3,-39.4
15507,12.776131868362427,-39,-40,-43,-39,-38,21.3,-39.8
15495,12.888232707977295,-41,-41,-39,-40,-38,21.3,-39.8
15481,12.984304666519165,-39,-41,-40,-38,-39,21.3,-39.4
15461,13.079826831817627,-39,-41,-38,-37,-38,21.3,-38.6
15439,13.175731182098389,-39,-40,-40,-41,-39,21.3,-39.8
15417,13.27160930633545,-38,-37,-39,-39,-39,21.3,-38.4
15392,13.36745548248291,-38,-39,-40,-40,-40,21.3,-39.4
15369,13.46330189704895,-39,-39,-39,-40,-37,21.3,-38.8
15346,13.558910608291626,-39,-39,-38,-39,-40,21.3,-39.0
15325,13.670301914215088,-39,-40,-40,-40,-41,21.3,-40.0
15303,13.766514301300049,-39,-40,-39,-42,-40,21.3,-40.0
15285,13.862399101257324,-40,-39,-38,-40,-40,21.3,-39.4
15264,13.958286762237549,-39,-40,-39,-38,-39,21.3,-39.0
15247,14.070167303085327,-40,-38,-40,-39,-39,21.3,-39.2
15229,14.165417194366455,-39,-40,-38,-36,-39,21.3,-38.4
15208,14.26192855834961,-39,-38,-39,-39,-40,21.3,-39.0
15191,14.357398271560669,-39,-39,-39,-39,-41,21.3,-39.4
15177,14.469328165054321,-40,-40,-40,-39,-39,21.3,-39.6
15168,14.565435409545898,-40,-40,-38,-40,-40,21.3,-39.6
15165,14.661163568496704,-39,-42,-40,-37,-39,21.3,-39.4
15164,14.756005048751831,-39,-39,-41,-40,-40,21.3,-39.8
15165,14.852647066116333,-41,-41,-40,-42,-41,21.3,-41.0
15165,14.94874119758606,-38,-41,-37,-39,-41,21.3,-39.2
15164,15.044307231903076,-40,-39,-40,-40,-40,21.3,-39.8
15165,15.139826774597168,-39,-40,-39,-37,-41,21.3,-39.2
15169,15.236211061477661,-36,-40,-41,-41,-38,21.3,-39.2
15174,15.332023859024048,-40,-40,-44,-39,-40,21.3,-40.6
15172,15.443708658218384,-39,-40,-41,-41,-41,21.3,-40.4
15174,15.539674997329712,-41,-39,-40,-38,-39,21.3,-39.4
15180,15.63519835472107,-41,-40,-38,-40,-39,21.3,-39.6
15191,15.731091737747192,-39,-41,-39,-41,-39,21.3,-39.8
15207,15.826539039611816,-41,-40,-41,-41,-38,21.3,-40.2
15231,15.922648429870605,-40,-40,-39,-42,-39,21.3,-40.0
15259,16.034533739089966,-39,-38,-40,-38,-39,21.3,-38.8
15284,16.130412578582764,-41,-42,-38,-39,-40,21.3,-40.0
15306,16.225439071655273,-38,-39,-40,-39,-40,21.3,-39.2
15327,16.32217264175415,-38,-40,-40,-40,-41,21.3,-39.8
15345,16.433727025985718,-41,-40,-41,-39,-40,21.3,-40.2
15364,16.529752492904663,-38,-39,-39,-40,-42,21.3,-39.6
15382,16.62492299079895,-39,-40,-38,-40,-39,21.3,-39.2
15402,16.72092342376709,-40,-39,-39,-40,-41,21.3,-39.8
15422,16.81724262237549,-38,-42,-42,-40,-39,21.3,-40.2
15445,16.913159132003784,-37,-41,-40,-41,-38,21.3,-39.4
15466,17.00879454612732,-40,-38,-40,-38,-40,21.3,-39.2
15482,17.10392999649048,-39,-42,-39,-39,-39,21.3,-39.6
15497,17.20062279701233,-40,-39,-40,-40,-42,21.3,-40.2
15510,17.29531455039978,-42,-40,-39,-39,-43,21.3,-40.6
15518,17.392211437225342,-41,-41,-41,-40,-41,21.3,-40.8
15522,17.48736047744751,-41,-41,-41,-38,-39,21.3,-40.0
15524,17.583922147750854,-40,-41,-40,-39,-39,21.3,-39.8
15523,17.67983055114746,-43,-40,-41,-41,-42,21.3,-41.4
15524,17.775430917739868,-39,-39,-41,-39,-40,21.3,-39.6
15523,17.871442556381226,-41,-40,-41,-41,-40,21.3,-40.6
15521,17.967207431793213,-41,-40,-42,-39,-39,21.3,-40.2
15518,18.062187910079956,-40,-41,-41,-41,-41,21.3,-40.8
15511,18.17401695251465,-40,-39,-39,-41,-40,21.3,-39.8
15501,18.270427942276,-41,-39,-39,-42,-39,21.3,-40.0
15487,18.366307973861694,-40,-40,-39,-38,-44,21.3,-40.2
15469,18.462443351745605,-40,-40,-42,-39,-39,21.3,-40.0
15450,18.558192491531372,-39,-40,-40,-40,-39,21.3,-39.6
15427,18.653964042663574,-39,-42,-42,-39,-40,21.3,-40.4
15401,18.749770641326904,-40,-41,-39,-40,-40,21.3,-40.0
15372,18.845512866973877,-40,-41,-41,-41,-40,21.3,-40.6
15341,18.957424879074097,-41,-42,-40,-41,-40,21.3,-40.8
15311,19.053104400634766,-41,-40,-39,-41,-41,21.3,-40.4
15278,19.148886680603027,-41,-39,-40,-38,-39,21.3,-39.4
15244,19.244852781295776,-40,-39,-41,-39,-40,21.3,-39.8
15204,19.340585708618164,-39,-39,-40,-40,-38,21.3,-39.2
15159,19.436211109161377,-37,-40,-37,-38,-39,21.3,-38.2
15111,19.547642946243286,-38,-39,-40,-40,-38,21.3,-39.0
15057,19.643659830093384,-39,-40,-38,-39,-39,21.3,-39.0
15000,19.73995327949524,-39,-40,-41,-40,-40,21.3,-40.0
14938,19.835794925689697,-41,-40,-42,-39,-39,21.3,-40.2
14871,19.93166971206665,-40,-41,-39,-40,-38,21.3,-39.6
14801,20.026793003082275,-37,-39,-39,-39,-41,21.3,-39.0
14725,20.123241901397705,-39,-37,-39,-39,-41,21.3,-39.0
14646,20.2192325592041,-41,-39,-38,-41,-39,21.3,-39.6
14564,20.330937147140503,-37,-39,-39,-40,-40,21.3,-39.0
14483,20.4265558719635,-39,-38,-40,-39,-38,21.3,-38.8
14402,20.522731065750122,-39,-37,-40,-38,-37,21.3,-38.2
14324,20.618579626083374,-37,-39,-39,-37,-41,21.3,-38.6
14246,20.730261087417603,-38,-40,-40,-38,-37,21.3,-38.6
14162,20.826229572296143,-38,-38,-38,-39,-39,21.3,-38.4
14077,20.921886205673218,-39,-39,-39,-37,-38,21.3,-38.4
13994,21.01772928237915,-37,-37,-39,-41,-39,21.3,-38.6
13913,21.112684965133667,-37,-40,-38,-39,-38,21.3,-38.4
13828,21.20946741104126,-40,-38,-37,-39,-37,21.3,-38.2
13743,21.321160793304443,-37,-39,-39,-37,-37,21.3,-37.8
13653,21.416937112808228,-38,-37,-38,-36,-37,21.3,-37.2
13566,21.528096675872803,-37,-38,-38,-38,-40,21.3,-38.2
13479,21.624282360076904,-38,-38,-36,-36,-38,21.3,-37.2
13390,21.720544815063477,-38,-37,-37,-38,-37,21.3,-37.4
13302,21.831501960754395,-37,-35,-39,-36,-38,21.3,-37.0
13213,21.942994356155396,-36,-36,-40,-38,-38,21.3,-37.6
13123,22.040067195892334,-38,-36,-35,-36,-37,21.3,-36.4
13032,22.134730339050293,-34,-36,-36,-34,-36,21.3,-35.2
12945,22.231635570526123,-35,-35,-37,-35,-37,21.3,-35.8
12860,22.327613353729248,-35,-37,-34,-38,-37,21.3,-36.2
12781,22.42282247543335,-35,-36,-34,-36,-36,21.3,-35.4
12706,22.51912808418274,-37,-39,-35,-37,-35,21.3,-36.6
12634,22.615031719207764,-37,-38,-36,-35,-36,21.3,-36.4
12565,22.710514783859253,-35,-36,-35,-35,-39,21.3,-36.0
12498,22.805819272994995,-37,-34,-36,-36,-35,21.3,-35.6
12434,22.91831088066101,-36,-35,-35,-36,-34,21.3,-35.2
12371,23.013586044311523,-37,-35,-33,-36,-35,21.3,-35.2
12309,23.109692335128784,-36,-35,-34,-39,-36,21.3,-36.0
12252,23.221846103668213,-36,-36,-37,-37,-35,21.3,-36.2
12196,23.3173930644989,-35,-35,-35,-34,-35,21.3,-34.8
12145,23.429433822631836,-34,-35,-36,-36,-36,21.3,-35.4
12099,23.52474021911621,-35,-37,-34,-36,-36,21.3,-35.6
12056,23.62035059928894,-37,-33,-35,-35,-37,21.3,-35.4
12015,23.716674327850342,-36,-35,-35,-36,-36,21.3,-35.6
11977,23.812915563583374,-36,-35,-36,-34,-36,21.3,-35.4
11945,23.92381739616394,-35,-36,-34,-36,-34,21.3,-35.0
11919,24.03624963760376,-36,-36,-34,-36,-34,21.3,-35.2
11899,24.148111581802368,-35,-34,-34,-35,-34,21.3,-34.4
11880,24.243501901626587,-36,-34,-35,-36,-36,21.3,-35.4
11866,24.339828491210938,-35,-34,-35,-35,-34,21.3,-34.6
11858,24.45096516609192,-36,-32,-35,-32,-36,21.3,-34.2
11855,24.547316789627075,-35,-33,-33,-35,-36,21.3,-34.4
11859,24.643183946609497,-35,-34,-35,-36,-35,21.3,-35.0
11867,24.754921436309814,-35,-35,-36,-36,-32,21.3,-34.8
11881,24.850895166397095,-36,-35,-35,-33,-34,21.3,-34.6
11903,24.94646143913269,-34,-35,-36,-34,-35,21.3,-34.8
11927,25.042622566223145,-33,-35,-34,-32,-34,21.3,-33.6
11953,25.1382155418396,-35,-34,-35,-33,-33,21.3,-34.0
11980,25.23407816886902,-36,-35,-36,-35,-34,21.3,-35.2
12006,25.329432725906372,-36,-33,-35,-34,-34,21.3,-34.4
12033,25.42571187019348,-34,-35,-35,-35,-34,21.3,-34.6
12060,25.52154302597046,-35,-35,-36,-33,-37,21.3,-35.2
12089,25.61723780632019,-36,-37,-34,-35,-33,21.3,-35.0
12117,25.713356971740723,-35,-35,-35,-36,-35,21.3,-35.2
12147,25.808653354644775,-33,-34,-36,-34,-34,21.3,-34.2
12176,25.90483546257019,-36,-38,-33,-34,-36,21.3,-35.4
12206,26.016405820846558,-36,-35,-36,-36,-35,21.3,-35.6
12238,26.112338304519653,-36,-36,-34,-35,-38,21.3,-35.8
12269,26.22414469718933,-35,-34,-35,-35,-36,21.3,-35.0
12303,26.319641590118408,-36,-35,-35,-37,-36,21.3,-35.8
12343,26.415942907333374,-32,-35,-36,-35,-35,21.3,-34.6
12384,26.51142406463623,-37,-34,-34,-34,-36,21.3,-35.0
12425,26.606879949569702,-33,-34,-37,-36,-34,21.3,-34.8
12464,26.703423976898193,-35,-35,-36,-36,-39,21.3,-36.2
12503,26.81515598297119,-38,-33,-37,-33,-35,21.3,-35.2
12543,26.91038179397583,-36,-35,-37,-34,-36,21.3,-35.6
12582,27.022167444229126,-36,-38,-34,-36,-35,21.3,-35.8
12618,27.117881059646606,-34,-36,-36,-38,-35,21.3,-35.8
12650,27.21453881263733,-35,-37,-37,-36,-36,21.3,-36.2
12677,27.31037163734436,-34,-38,-33,-36,-35,21.3,-35.2
12700,27.422037601470947,-34,-36,-34,-36,-35,21.3,-35.0
12719,27.517900705337524,-35,-35,-36,-36,-36,21.3,-35.6
12734,27.613752365112305,-39,-37,-35,-36,-38,21.3,-37.0
12747,27.725488424301147,-36,-37,-36,-35,-36,21.3,-36.0
12753,27.820512533187866,-37,-36,-35,-35,-35,21.3,-35.6
12754,27.91720700263977,-35,-37,-37,-35,-35,21.3,-35.8
12749,28.012973308563232,-37,-36,-36,-35,-35,21.3,-35.8
12746,28.124854803085327,-35,-36,-37,-36,-37,21.3,-36.2
12739,28.21985626220703,-34,-36,-34,-34,-39,21.3,-35.4
12729,28.332088470458984,-36,-36,-35,-37,-36,21.3,-36.0
12713,28.443853855133057,-36,-34,-35,-37,-36,21.3,-35.6
12690,28.540148496627808,-36,-35,-38,-35,-37,21.3,-36.2
12660,28.63522458076477,-37,-34,-36,-34,-35,21.3,-35.2
12624,28.74726629257202,-38,-36,-34,-35,-35,21.3,-35.6
12592,28.843419790267944,-36,-36,-35,-37,-34,21.3,-35.6
12560,28.939298629760742,-35,-38,-36,-36,-36,21.3,-36.2
12526,29.05106210708618,-37,-35,-36,-36,-38,21.3,-36.4
12491,29.146592378616333,-35,-36,-36,-35,-35,21.3,-35.4
12458,29.242515087127686,-36,-36,-37,-36,-35,21.3,-36.0
12420,29.337767839431763,-37,-37,-33,-37,-34,21.3,-35.6
12376,29.434378623962402,-35,-35,-37,-34,-35,21.3,-35.2
12329,29.530290842056274,-35,-35,-35,-36,-32,21.3,-34.6
12276,29.626229763031006,-37,-35,-36,-37,-37,21.3,-36.4
12222,29.73738956451416,-36,-36,-34,-34,-34,21.3,-34.8
12165,29.833620309829712,-35,-35,-35,-36,-35,21.3,-35.2
12108,29.928764581680298,-34,-36,-34,-35,-36,21.3,-35.0
12052,30.02520775794983,-36,-35,-35,-37,-35,21.3,-35.6
11996,30.136679649353027,-33,-35,-36,-34,-36,21.3,-34.8
11945,30.232845306396484,-36,-35,-34,-32,-34,21.3,-34.2
11897,30.32883381843567,-35,-33,-35,-34,-35,21.3,-34.4
11855,30.424540758132935,-37,-35,-35,-37,-33,21.3,-35.4
11810,30.51966881752014,-35,-36,-34,-34,-36,21.3,-35.0
11768,30.616283416748047,-35,-35,-35,-34,-33,21.3,-34.4
11727,30.72793745994568,-34,-34,-34,-34,-33,21.3,-33.8
11690,30.8239324092865,-35,-35,-32,-34,-36,21.3,-34.4
11657,30.935874223709106,-35,-34,-36,-33,-33,21.3,-34.2
11625,31.031444549560547,-33,-35,-33,-35,-35,21.3,-34.2
11596,31.142364978790283,-35,-32,-35,-34,-35,21.3,-34.2
11570,31.25424861907959,-36,-36,-35,-34,-33,21.3,-34.8
11547,31.36673665046692,-34,-34,-33,-36,-36,21.3,-34.6
11528,31.46268916130066,-34,-33,-32,-34,-33,21.3,-33.2
11513,31.558531761169434,-37,-34,-34,-34,-34,21.3,-34.6
11504,31.669926404953003,-33,-32,-33,-33,-34,21.3,-33.0
11498,31.781312227249146,-35,-35,-33,-35,-36,21.3,-34.8
11496,31.877925157546997,-33,-35,-35,-33,-32,21.3,-33.6
11498,31.97382354736328,-35,-35,-33,-33,-34,21.3,-34.0
11501,32.06964826583862,-35,-35,-32,-34,-33,21.3,-33.8
11506,32.16532015800476,-35,-34,-36,-34,-34,21.3,-34.6
11509,32.2605414390564,-33,-35,-33,-36,-32,21.3,-33.8
11515,32.356502056121826,-36,-34,-33,-36,-34,21.3,-34.6
11523,32.45270371437073,-34,-34,-35,-34,-34,21.3,-34.2
11533,32.54874539375305,-34,-35,-34,-34,-35,21.3,-34.4
11543,32.64463186264038,-33,-33,-34,-35,-34,21.3,-33.8
11554,32.740445613861084,-36,-34,-35,-35,-34,21.3,-34.8
11563,32.85200500488281,-33,-34,-33,-32,-34,21.3,-33.2
11575,32.947710275650024,-32,-33,-35,-33,-33,21.3,-33.2
11588,33.05985403060913,-34,-33,-35,-34,-36,21.3,-34.4
11598,33.15559935569763,-34,-34,-35,-34,-31,21.3,-33.6
11605,33.25145506858826,-32,-36,-33,-34,-35,21.3,-34.0
11607,33.347373962402344,-35,-33,-34,-35,-36,21.3,-34.6
11606,33.44303011894226,-35,-34,-34,-33,-34,21.3,-34.0
11602,33.53905534744263,-36,-34,-34,-33,-34,21.3,-34.2
11598,33.65084171295166,-35,-33,-36,-35,-34,21.3,-34.6
11595,33.7465078830719,-35,-33,-33,-35,-32,21.3,-33.6
11590,33.84252214431763,-35,-33,-33,-37,-33,21.3,-34.2
11584,33.938210010528564,-33,-34,-34,-32,-35,21.3,-33.6
11578,34.03430938720703,-32,-35,-35,-35,-34,21.3,-34.2
11569,34.12948274612427,-33,-33,-34,-33,-34,21.3,-33.4
11564,34.22568869590759,-34,-34,-33,-33,-33,21.3,-33.4
11553,34.337169885635376,-36,-36,-36,-35,-34,21.3,-35.4
11536,34.44916033744812,-35,-34,-35,-33,-34,21.3,-34.2
11516,34.5447793006897,-34,-33,-33,-32,-34,21.3,-33.2
11501,34.640949010849,-34,-35,-33,-35,-32,21.3,-33.8
11489,34.73652005195618,-34,-34,-36,-33,-33,21.3,-34.0
11484,34.83271384239197,-37,-33,-34,-35,-37,21.3,-35.2
11481,34.94390273094177,-34,-34,-34,-34,-33,21.3,-33.8
11478,35.04026961326599,-35,-36,-35,-35,-34,21.3,-35.0
11476,35.135209798812866,-33,-35,-33,-34,-33,21.3,-33.6
11473,35.231433629989624,-34,-35,-34,-36,-33,21.3,-34.4
11469,35.32673144340515,-34,-37,-34,-33,-33,21.3,-34.2
11468,35.422831773757935,-33,-35,-32,-32,-34,21.3,-33.2
11465,35.51941156387329,-36,-34,-33,-33,-36,21.3,-34.4
11463,35.61520719528198,-35,-36,-35,-33,-35,21.3,-34.8
